/Users/robertfree/Desktop/G2_OE3_calibration/Si_17keV_dbl60s_005.tif: Azimuth/2-theta
2-Theta Angle (Degrees)







       1482
 9.7387116E-03  0.0000000E+00
 2.9216135E-02  0.0000000E+00
 4.8693560E-02  0.0000000E+00
 6.8170987E-02  0.0000000E+00
 8.7648407E-02  0.0000000E+00
 1.0712583E-01  1.4000061E+01
 1.2660326E-01  1.4000089E+01
 1.4608067E-01  0.0000000E+00
 1.6555810E-01  0.0000000E+00
 1.8503553E-01  0.0000000E+00
 2.0451295E-01  0.0000000E+00
 2.2399037E-01  5.0001044E+00
 2.4346782E-01  5.0001249E+00
 2.6294523E-01  0.0000000E+00
 2.8242263E-01  0.0000000E+00
 3.0190009E-01  0.0000000E+00
 3.2137749E-01  0.0000000E+00
 3.4085491E-01  1.1000551E+01
 3.6033234E-01  1.1000617E+01
 3.7980977E-01  0.0000000E+00
 3.9928719E-01  0.0000000E+00
 4.1876462E-01  0.0000000E+00
 4.3824205E-01  0.0000000E+00
 4.5771950E-01  1.1001010E+01
 4.7719687E-01  1.1001098E+01
 4.9667430E-01  0.0000000E+00
 5.1615179E-01  0.0000000E+00
 5.3562915E-01  0.0000000E+00
 5.5510658E-01  0.0000000E+00
 5.7458407E-01  1.4002040E+01
 5.9406143E-01  1.3992008E+01
 6.1353886E-01  1.3285547E+01
 6.3301629E-01  1.3002308E+01
 6.5249372E-01  0.0000000E+00
 6.7197114E-01  0.0000000E+00
 6.9144857E-01  1.1002337E+01
 7.1092594E-01  1.1002472E+01
 7.3040336E-01  9.8624249E+00
 7.4988079E-01  9.0022545E+00
 7.6935822E-01  0.0000000E+00
 7.8883564E-01  0.0000000E+00
 8.0831307E-01  1.2003499E+01
 8.2779050E-01  1.2003670E+01
 8.4726793E-01  1.3200754E+01
 8.6674535E-01  1.4004701E+01
 8.8622278E-01  1.4004916E+01
 9.0570021E-01  0.0000000E+00
 9.2517763E-01  0.0000000E+00
 9.4465512E-01  1.0003994E+01
 9.6413249E-01  8.2191467E+00
 9.8360991E-01  6.0026002E+00
 1.0030874E+00  6.0027051E+00
 1.0225648E+00  0.0000000E+00
 1.0420421E+00  0.0000000E+00
 1.0615196E+00  1.1005563E+01
 1.0809970E+00  1.1566462E+01
 1.1004745E+00  1.3007069E+01
 1.1199520E+00  1.2310295E+01
 1.1394293E+00  1.2007000E+01
 1.1589067E+00  0.0000000E+00
 1.1783842E+00  1.3008117E+01
 1.1978616E+00  1.3232670E+01
 1.2173390E+00  1.4817884E+01
 1.2368165E+00  1.3911069E+01
 1.2562938E+00  1.3009234E+01
 1.2757714E+00  1.3009526E+01
 1.2952487E+00  1.0007557E+01
 1.3147262E+00  1.0007786E+01
 1.3342036E+00  9.2191086E+00
 1.3536810E+00  1.0197055E+01
 1.3731583E+00  1.2010199E+01
 1.3926358E+00  1.2010492E+01
 1.4121133E+00  1.0008991E+01
 1.4315907E+00  1.0009243E+01
 1.4510682E+00  1.0009498E+01
 1.4705455E+00  1.0488594E+01
 1.4900229E+00  1.2012022E+01
 1.5095004E+00  1.2012340E+01
 1.5289779E+00  0.0000000E+00
 1.5484552E+00  1.3014074E+01
 1.5679327E+00  1.3014432E+01
 1.5874101E+00  1.2924252E+01
 1.6068873E+00  1.2130273E+01
 1.6263649E+00  1.1501549E+01
 1.6458424E+00  1.1013466E+01
 1.6653198E+00  1.2827164E+01
 1.6847973E+00  1.2304233E+01
 1.7042747E+00  1.1014445E+01
 1.7237519E+00  1.1768216E+01
 1.7432295E+00  1.2016489E+01
 1.7627069E+00  1.2016865E+01
 1.7821844E+00  1.0702021E+01
 1.8016617E+00  9.8183851E+00
 1.8211392E+00  9.0503187E+00
 1.8406165E+00  1.1449733E+01
 1.8600941E+00  1.2356152E+01
 1.8795714E+00  9.0600529E+00
 1.8990489E+00  9.8637905E+00
 1.9185263E+00  1.2980888E+01
 1.9380038E+00  9.6150885E+00
 1.9574810E+00  9.9389009E+00
 1.9769586E+00  1.1019474E+01
 1.9964360E+00  1.0767124E+01
 2.0159135E+00  1.0800038E+01
 2.0353909E+00  1.2022522E+01
 2.0548682E+00  1.3476582E+01
 2.0743456E+00  1.2775150E+01
 2.0938232E+00  1.0019871E+01
 2.1133006E+00  1.0020245E+01
 2.1327779E+00  1.0270022E+01
 2.1522553E+00  1.0571531E+01
 2.1717329E+00  9.7127209E+00
 2.1912100E+00  9.1895609E+00
 2.2106876E+00  9.9867125E+00
 2.2301650E+00  1.1711781E+01
 2.2496426E+00  1.2415700E+01
 2.2691200E+00  1.2093608E+01
 2.2885973E+00  1.1264435E+01
 2.3080747E+00  1.0068905E+01
 2.3275523E+00  1.1682765E+01
 2.3470297E+00  1.2956953E+01
 2.3665071E+00  1.3371210E+01
 2.3859844E+00  1.0772079E+01
 2.4054618E+00  1.0191813E+01
 2.4249392E+00  8.0213566E+00
 2.4444168E+00  1.2850984E+01
 2.4638941E+00  1.3095043E+01
 2.4833715E+00  9.7521944E+00
 2.5028491E+00  1.2309657E+01
 2.5223265E+00  1.4079164E+01
 2.5418038E+00  1.4197365E+01
 2.5612812E+00  1.4041721E+01
 2.5807586E+00  1.3499686E+01
 2.6002362E+00  1.2388663E+01
 2.6197138E+00  1.2997209E+01
 2.6391909E+00  1.3372270E+01
 2.6586683E+00  1.4127984E+01
 2.6781459E+00  1.4262557E+01
 2.6976230E+00  1.3953054E+01
 2.7171006E+00  1.2531924E+01
 2.7365782E+00  1.2725819E+01
 2.7560556E+00  1.3115465E+01
 2.7755327E+00  1.3843188E+01
 2.7950103E+00  1.4797305E+01
 2.8144877E+00  1.8064842E+01
 2.8339653E+00  1.7207893E+01
 2.8534429E+00  1.5656328E+01
 2.8729200E+00  1.4508160E+01
 2.8923974E+00  1.4211672E+01
 2.9118750E+00  1.3992901E+01
 2.9313521E+00  1.4923972E+01
 2.9508297E+00  1.4377571E+01
 2.9703074E+00  1.4805473E+01
 2.9897847E+00  1.3860304E+01
 3.0092618E+00  1.2723677E+01
 3.0287395E+00  1.2463172E+01
 3.0482168E+00  1.1856190E+01
 3.0676944E+00  1.2714321E+01
 3.0871718E+00  1.3895202E+01
 3.1066492E+00  1.4626134E+01
 3.1261265E+00  1.5388623E+01
 3.1456039E+00  1.6780369E+01
 3.1650813E+00  1.6684034E+01
 3.1845589E+00  1.5096518E+01
 3.2040365E+00  1.3232146E+01
 3.2235136E+00  1.4000282E+01
 3.2429910E+00  1.4553197E+01
 3.2624686E+00  1.4667274E+01
 3.2819457E+00  1.5939763E+01
 3.3014233E+00  1.5503819E+01
 3.3209009E+00  1.3715509E+01
 3.3403783E+00  1.4033842E+01
 3.3598554E+00  1.3711865E+01
 3.3793330E+00  1.3736619E+01
 3.3988104E+00  1.6485819E+01
 3.4182880E+00  1.8574242E+01
 3.4377656E+00  1.6142790E+01
 3.4572427E+00  1.5282744E+01
 3.4767201E+00  1.5149535E+01
 3.4961977E+00  1.6253136E+01
 3.5156748E+00  1.4957129E+01
 3.5351524E+00  1.4071166E+01
 3.5546300E+00  1.3437552E+01
 3.5741074E+00  1.3384869E+01
 3.5935845E+00  1.0321425E+01
 3.6130621E+00  1.1265634E+01
 3.6325397E+00  1.3241508E+01
 3.6520171E+00  1.5947822E+01
 3.6714945E+00  1.4343879E+01
 3.6909721E+00  1.3656385E+01
 3.7104492E+00  1.4963346E+01
 3.7299268E+00  1.5028024E+01
 3.7494042E+00  1.5437879E+01
 3.7688816E+00  1.4834289E+01
 3.7883592E+00  1.5761852E+01
 3.8078368E+00  1.5378574E+01
 3.8273137E+00  1.6685360E+01
 3.8467913E+00  1.7719971E+01
 3.8662689E+00  1.7470373E+01
 3.8857460E+00  1.5667556E+01
 3.9052236E+00  1.5515037E+01
 3.9247012E+00  1.4851184E+01
 3.9441783E+00  1.3016029E+01
 3.9636557E+00  1.4236918E+01
 3.9831333E+00  1.6747667E+01
 4.0026107E+00  1.2629259E+01
 4.0220881E+00  1.2473797E+01
 4.0415659E+00  1.4219494E+01
 4.0610428E+00  1.5633465E+01
 4.0805202E+00  1.6685244E+01
 4.0999980E+00  1.3485341E+01
 4.1194754E+00  1.5024506E+01
 4.1389527E+00  1.7173138E+01
 4.1584306E+00  1.7474319E+01
 4.1779075E+00  1.6079227E+01
 4.1973848E+00  1.4329521E+01
 4.2168627E+00  1.4015271E+01
 4.2363396E+00  1.4588782E+01
 4.2558174E+00  1.4788061E+01
 4.2752948E+00  1.3644109E+01
 4.2947717E+00  1.3271609E+01
 4.3142495E+00  1.3654828E+01
 4.3337269E+00  1.6392183E+01
 4.3532043E+00  1.6894043E+01
 4.3726816E+00  1.6457140E+01
 4.3921595E+00  1.5452003E+01
 4.4116364E+00  1.5139439E+01
 4.4311142E+00  1.4243549E+01
 4.4505916E+00  1.3521866E+01
 4.4700689E+00  1.2614632E+01
 4.4895463E+00  1.2954929E+01
 4.5090241E+00  1.4462499E+01
 4.5285010E+00  1.4707757E+01
 4.5479784E+00  1.4176311E+01
 4.5674562E+00  1.5335174E+01
 4.5869331E+00  1.6080421E+01
 4.6064110E+00  1.4364069E+01
 4.6258883E+00  1.4149423E+01
 4.6453657E+00  1.3831263E+01
 4.6648431E+00  1.4755332E+01
 4.6843204E+00  1.3918662E+01
 4.7037978E+00  1.4011222E+01
 4.7232757E+00  1.2281788E+01
 4.7427530E+00  1.1712751E+01
 4.7622299E+00  1.2198063E+01
 4.7817078E+00  1.4364298E+01
 4.8011851E+00  1.4689260E+01
 4.8206625E+00  1.3980062E+01
 4.8401399E+00  1.3169340E+01
 4.8596177E+00  1.3264252E+01
 4.8790946E+00  1.2614326E+01
 4.8985720E+00  1.2897073E+01
 4.9180498E+00  1.2834479E+01
 4.9375272E+00  1.3151288E+01
 4.9570045E+00  1.4191049E+01
 4.9764819E+00  1.4842396E+01
 4.9959593E+00  1.4820603E+01
 5.0154366E+00  1.4642195E+01
 5.0349145E+00  1.4558381E+01
 5.0543914E+00  1.5637579E+01
 5.0738692E+00  1.6457813E+01
 5.0933466E+00  1.6301662E+01
 5.1128235E+00  1.3566204E+01
 5.1323013E+00  1.5283000E+01
 5.1517787E+00  1.7126951E+01
 5.1712561E+00  1.4013944E+01
 5.1907334E+00  1.1197503E+01
 5.2102113E+00  1.0974069E+01
 5.2296886E+00  1.2953637E+01
 5.2491655E+00  1.2389508E+01
 5.2686439E+00  1.2522639E+01
 5.2881203E+00  1.3963058E+01
 5.3075981E+00  1.5667686E+01
 5.3270755E+00  1.4685138E+01
 5.3465528E+00  1.5657557E+01
 5.3660307E+00  1.6547430E+01
 5.3855081E+00  1.5968925E+01
 5.4049850E+00  1.4753152E+01
 5.4244623E+00  1.4490599E+01
 5.4439402E+00  1.4524822E+01
 5.4634175E+00  1.3457058E+01
 5.4828949E+00  1.3388164E+01
 5.5023727E+00  1.3638422E+01
 5.5218496E+00  1.4159266E+01
 5.5413275E+00  1.4197941E+01
 5.5608044E+00  1.4301175E+01
 5.5802817E+00  1.4652148E+01
 5.5997596E+00  1.4294253E+01
 5.6192369E+00  1.2462057E+01
 5.6387143E+00  1.3172729E+01
 5.6581917E+00  1.3673561E+01
 5.6776695E+00  1.3646212E+01
 5.6971469E+00  1.3307305E+01
 5.7166238E+00  1.3539960E+01
 5.7361016E+00  1.2613965E+01
 5.7555785E+00  1.2181225E+01
 5.7750564E+00  1.2975212E+01
 5.7945337E+00  1.3755148E+01
 5.8140111E+00  1.2681959E+01
 5.8334889E+00  1.1766637E+01
 5.8529658E+00  1.2222403E+01
 5.8724432E+00  1.2281896E+01
 5.8919206E+00  1.2194077E+01
 5.9113984E+00  1.3833961E+01
 5.9308758E+00  1.3570038E+01
 5.9503531E+00  1.3924211E+01
 5.9698310E+00  1.4477581E+01
 5.9893074E+00  1.3817186E+01
 6.0087852E+00  1.2189247E+01
 6.0282626E+00  1.1928044E+01
 6.0477400E+00  1.1994153E+01
 6.0672178E+00  1.2480627E+01
 6.0866952E+00  1.2707093E+01
 6.1061726E+00  1.2961207E+01
 6.1256495E+00  1.2553677E+01
 6.1451278E+00  1.2485262E+01
 6.1646047E+00  1.3195842E+01
 6.1840820E+00  1.4011487E+01
 6.2035599E+00  1.4280070E+01
 6.2230368E+00  1.4194499E+01
 6.2425146E+00  1.4947499E+01
 6.2619920E+00  1.5103961E+01
 6.2814689E+00  1.4511623E+01
 6.3009472E+00  1.4483093E+01
 6.3204241E+00  1.4011989E+01
 6.3399014E+00  1.3518333E+01
 6.3593788E+00  1.3627654E+01
 6.3788567E+00  1.4667554E+01
 6.3983340E+00  1.5389597E+01
 6.4178114E+00  1.2195810E+01
 6.4372892E+00  1.1252872E+01
 6.4567657E+00  1.3781038E+01
 6.4762435E+00  1.4787294E+01
 6.4957209E+00  1.3750127E+01
 6.5151982E+00  1.4287592E+01
 6.5346761E+00  1.4753016E+01
 6.5541534E+00  1.4042945E+01
 6.5736308E+00  1.4211685E+01
 6.5931077E+00  1.4072761E+01
 6.6125855E+00  1.3514910E+01
 6.6320629E+00  1.3123912E+01
 6.6515403E+00  1.3511280E+01
 6.6710181E+00  1.3881223E+01
 6.6904950E+00  1.3868297E+01
 6.7099729E+00  1.3705078E+01
 6.7294497E+00  1.4052122E+01
 6.7489271E+00  1.4162207E+01
 6.7684050E+00  1.2784435E+01
 6.7878823E+00  1.1634202E+01
 6.8073597E+00  1.2105873E+01
 6.8268371E+00  1.2030387E+01
 6.8463149E+00  1.2281799E+01
 6.8657923E+00  1.1898323E+01
 6.8852692E+00  1.3168796E+01
 6.9047470E+00  1.4282093E+01
 6.9242239E+00  1.4899123E+01
 6.9437017E+00  1.4419465E+01
 6.9631791E+00  1.3640211E+01
 6.9826565E+00  1.4066619E+01
 7.0021343E+00  1.3032376E+01
 7.0216117E+00  1.3196542E+01
 7.0410886E+00  1.4068573E+01
 7.0605659E+00  1.4890556E+01
 7.0800438E+00  1.3799113E+01
 7.0995212E+00  1.2805399E+01
 7.1189985E+00  1.3140893E+01
 7.1384764E+00  1.3885773E+01
 7.1579528E+00  1.4504992E+01
 7.1774316E+00  1.4270674E+01
 7.1969080E+00  1.3997897E+01
 7.2163854E+00  1.3671968E+01
 7.2358632E+00  1.2791571E+01
 7.2553406E+00  1.0971846E+01
 7.2748179E+00  9.6423731E+00
 7.2942958E+00  1.0550027E+01
 7.3137732E+00  1.2779736E+01
 7.3332500E+00  1.3164486E+01
 7.3527284E+00  1.4024323E+01
 7.3722053E+00  1.3881476E+01
 7.3916821E+00  1.3475430E+01
 7.4111605E+00  1.2062217E+01
 7.4306374E+00  1.1818186E+01
 7.4501147E+00  1.2269738E+01
 7.4695926E+00  1.1712887E+01
 7.4890695E+00  1.2286157E+01
 7.5085468E+00  1.3143326E+01
 7.5280247E+00  1.3942575E+01
 7.5475020E+00  1.4985203E+01
 7.5669794E+00  1.4057697E+01
 7.5864573E+00  1.2525521E+01
 7.6059346E+00  1.2355796E+01
 7.6254110E+00  1.3131609E+01
 7.6448898E+00  1.3812212E+01
 7.6643662E+00  1.3145093E+01
 7.6838436E+00  1.2548843E+01
 7.7033215E+00  1.2170624E+01
 7.7227988E+00  1.2200646E+01
 7.7422762E+00  1.3055111E+01
 7.7617540E+00  1.3603828E+01
 7.7812309E+00  1.4013646E+01
 7.8007083E+00  1.4646248E+01
 7.8201861E+00  1.3125690E+01
 7.8396635E+00  1.2732395E+01
 7.8591404E+00  1.3315343E+01
 7.8786187E+00  1.3957843E+01
 7.8980956E+00  1.7148781E+01
 7.9175725E+00  1.5853210E+01
 7.9370503E+00  1.2995088E+01
 7.9565277E+00  1.2713610E+01
 7.9760051E+00  1.3266747E+01
 7.9954829E+00  1.3684049E+01
 8.0149603E+00  1.4542865E+01
 8.0344372E+00  1.4259545E+01
 8.0539150E+00  1.3126841E+01
 8.0733929E+00  1.2348749E+01
 8.0928698E+00  1.2495116E+01
 8.1123476E+00  1.2714048E+01
 8.1318245E+00  1.2310231E+01
 8.1513014E+00  1.1959594E+01
 8.1707792E+00  1.1960443E+01
 8.1902571E+00  1.2493370E+01
 8.2097340E+00  1.2934518E+01
 8.2292118E+00  1.2821933E+01
 8.2486897E+00  1.2560503E+01
 8.2681665E+00  1.3438756E+01
 8.2876444E+00  1.3234287E+01
 8.3071213E+00  1.2163067E+01
 8.3265982E+00  1.1342864E+01
 8.3460770E+00  1.1065849E+01
 8.3655539E+00  1.2342904E+01
 8.3850307E+00  1.3016433E+01
 8.4045086E+00  1.2171688E+01
 8.4239864E+00  1.3633341E+01
 8.4434633E+00  1.2518263E+01
 8.4629412E+00  1.1476352E+01
 8.4824181E+00  1.1644491E+01
 8.5018959E+00  1.1513293E+01
 8.5213737E+00  1.2501229E+01
 8.5408506E+00  1.3319613E+01
 8.5603275E+00  1.3175276E+01
 8.5798063E+00  1.3118345E+01
 8.5992823E+00  1.3169462E+01
 8.6187601E+00  1.2915629E+01
 8.6382380E+00  1.2358070E+01
 8.6577148E+00  1.2173128E+01
 8.6771927E+00  1.2483191E+01
 8.6966705E+00  1.2308703E+01
 8.7161474E+00  1.2294312E+01
 8.7356243E+00  1.2867431E+01
 8.7551031E+00  1.2965005E+01
 8.7745800E+00  1.3736547E+01
 8.7940569E+00  1.3130146E+01
 8.8135347E+00  1.3569148E+01
 8.8330116E+00  1.4761213E+01
 8.8524895E+00  1.4245858E+01
 8.8719673E+00  1.2346912E+01
 8.8914442E+00  1.2466646E+01
 8.9109211E+00  1.3606008E+01
 8.9303989E+00  1.2616307E+01
 8.9498768E+00  1.1998493E+01
 8.9693537E+00  1.3282523E+01
 8.9888315E+00  1.4200031E+01
 9.0083094E+00  1.3695578E+01
 9.0277853E+00  1.3278240E+01
 9.0472641E+00  1.2807081E+01
 9.0667410E+00  1.3630547E+01
 9.0862179E+00  1.3734457E+01
 9.1056957E+00  1.3932049E+01
 9.1251736E+00  1.4916773E+01
 9.1446505E+00  1.5982544E+01
 9.1641283E+00  1.5158417E+01
 9.1836052E+00  1.3219954E+01
 9.2030830E+00  1.2465351E+01
 9.2225609E+00  1.2656123E+01
 9.2420378E+00  1.3207411E+01
 9.2615147E+00  1.3340604E+01
 9.2809935E+00  1.3098128E+01
 9.3004704E+00  1.2752681E+01
 9.3199472E+00  1.2570150E+01
 9.3394251E+00  1.3241956E+01
 9.3589020E+00  1.2703768E+01
 9.3783798E+00  1.2330591E+01
 9.3978577E+00  1.2004288E+01
 9.4173346E+00  1.2490609E+01
 9.4368124E+00  1.3526419E+01
 9.4562902E+00  1.3442283E+01
 9.4757671E+00  1.3970105E+01
 9.4952440E+00  1.4403935E+01
 9.5147219E+00  1.1899411E+01
 9.5341988E+00  1.0858991E+01
 9.5536766E+00  1.2727801E+01
 9.5731544E+00  1.2130187E+01
 9.5926313E+00  1.3056164E+01
 9.6121082E+00  1.4112433E+01
 9.6315870E+00  1.3923147E+01
 9.6510639E+00  1.2016829E+01
 9.6705408E+00  1.1324049E+01
 9.6900187E+00  1.1143539E+01
 9.7094965E+00  1.1791777E+01
 9.7289734E+00  1.2703194E+01
 9.7484512E+00  1.2539802E+01
 9.7679281E+00  1.1893022E+01
 9.7874050E+00  1.1751210E+01
 9.8068829E+00  1.2705275E+01
 9.8263607E+00  1.3412135E+01
 9.8458376E+00  1.3436136E+01
 9.8653154E+00  1.2769403E+01
 9.8847933E+00  1.2563972E+01
 9.9042702E+00  1.2869364E+01
 9.9237480E+00  1.2871800E+01
 9.9432249E+00  1.2392450E+01
 9.9627018E+00  1.2866199E+01
 9.9821806E+00  1.3239010E+01
 1.0001657E+01  1.3226550E+01
 1.0021134E+01  1.2594667E+01
 1.0040612E+01  1.2791831E+01
 1.0060089E+01  1.3290640E+01
 1.0079567E+01  1.2679358E+01
 1.0099045E+01  1.2758270E+01
 1.0118522E+01  1.1510481E+01
 1.0138000E+01  1.2042511E+01
 1.0157477E+01  1.3724762E+01
 1.0176954E+01  1.4224534E+01
 1.0196431E+01  1.3333335E+01
 1.0215909E+01  1.2210661E+01
 1.0235387E+01  1.2985903E+01
 1.0254864E+01  1.3301690E+01
 1.0274342E+01  1.2187605E+01
 1.0293819E+01  1.1948496E+01
 1.0313296E+01  1.2458964E+01
 1.0332774E+01  1.2765817E+01
 1.0352250E+01  1.3056529E+01
 1.0371728E+01  1.3374116E+01
 1.0391206E+01  1.3158375E+01
 1.0410683E+01  1.2863091E+01
 1.0430161E+01  1.2860727E+01
 1.0449638E+01  1.2908751E+01
 1.0469115E+01  1.2537224E+01
 1.0488593E+01  1.2488153E+01
 1.0508071E+01  1.2800988E+01
 1.0527548E+01  1.3132072E+01
 1.0547025E+01  1.3679914E+01
 1.0566504E+01  1.3358140E+01
 1.0585980E+01  1.2510111E+01
 1.0605457E+01  1.1966095E+01
 1.0624935E+01  1.2180058E+01
 1.0644413E+01  1.2981631E+01
 1.0663889E+01  1.3451645E+01
 1.0683367E+01  1.3231442E+01
 1.0702845E+01  1.3256787E+01
 1.0722322E+01  1.3234953E+01
 1.0741799E+01  1.3346618E+01
 1.0761277E+01  1.3792866E+01
 1.0780754E+01  1.3510764E+01
 1.0800232E+01  1.2800280E+01
 1.0819709E+01  1.3101113E+01
 1.0839187E+01  1.3853980E+01
 1.0858665E+01  1.4853144E+01
 1.0878141E+01  1.4493065E+01
 1.0897619E+01  1.4208807E+01
 1.0917097E+01  1.3534348E+01
 1.0936573E+01  1.3738853E+01
 1.0956052E+01  1.3494029E+01
 1.0975530E+01  1.3429843E+01
 1.0995006E+01  1.2537631E+01
 1.1014482E+01  1.2631854E+01
 1.1033961E+01  1.2712239E+01
 1.1053438E+01  1.2734122E+01
 1.1072915E+01  1.2348652E+01
 1.1092393E+01  1.2058190E+01
 1.1111871E+01  1.2046814E+01
 1.1131348E+01  1.2408101E+01
 1.1150826E+01  1.2438642E+01
 1.1170303E+01  1.2032804E+01
 1.1189780E+01  1.2783505E+01
 1.1209258E+01  1.4617877E+01
 1.1228736E+01  1.4822958E+01
 1.1248212E+01  1.3799384E+01
 1.1267690E+01  1.3023255E+01
 1.1287167E+01  1.2325257E+01
 1.1306644E+01  1.2663008E+01
 1.1326122E+01  1.3685227E+01
 1.1345599E+01  1.3469791E+01
 1.1365077E+01  1.1123577E+01
 1.1384555E+01  1.1785702E+01
 1.1404032E+01  1.2226603E+01
 1.1423510E+01  1.3239452E+01
 1.1442987E+01  1.4335457E+01
 1.1462464E+01  1.3034613E+01
 1.1481941E+01  1.2630979E+01
 1.1501420E+01  1.2505786E+01
 1.1520897E+01  1.2448178E+01
 1.1540373E+01  1.2428346E+01
 1.1559851E+01  1.3335567E+01
 1.1579329E+01  1.3980530E+01
 1.1598805E+01  1.3647362E+01
 1.1618283E+01  1.2724236E+01
 1.1637761E+01  1.2160041E+01
 1.1657238E+01  1.2058998E+01
 1.1676716E+01  1.1775388E+01
 1.1696194E+01  1.2492786E+01
 1.1715671E+01  1.2465182E+01
 1.1735148E+01  1.2613122E+01
 1.1754625E+01  1.2883492E+01
 1.1774103E+01  1.2613298E+01
 1.1793581E+01  1.2844490E+01
 1.1813057E+01  1.3181053E+01
 1.1832536E+01  1.3831649E+01
 1.1852014E+01  1.3265544E+01
 1.1871490E+01  1.3621867E+01
 1.1890967E+01  1.3146212E+01
 1.1910445E+01  1.2471435E+01
 1.1929922E+01  1.2802863E+01
 1.1949399E+01  1.3133902E+01
 1.1968878E+01  1.3165979E+01
 1.1988355E+01  1.1826818E+01
 1.2007832E+01  1.1958179E+01
 1.2027309E+01  1.3274086E+01
 1.2046787E+01  1.3464449E+01
 1.2066264E+01  1.2411741E+01
 1.2085742E+01  1.1595440E+01
 1.2105220E+01  1.2194930E+01
 1.2124696E+01  1.2939152E+01
 1.2144174E+01  1.3039988E+01
 1.2163652E+01  1.3092655E+01
 1.2183128E+01  1.1901506E+01
 1.2202606E+01  1.1775900E+01
 1.2222083E+01  1.2363003E+01
 1.2241561E+01  1.2444280E+01
 1.2261039E+01  1.2478909E+01
 1.2280516E+01  1.2961493E+01
 1.2299994E+01  1.3306096E+01
 1.2319471E+01  1.3291371E+01
 1.2338948E+01  1.2502299E+01
 1.2358426E+01  1.2557406E+01
 1.2377904E+01  1.3497267E+01
 1.2397381E+01  1.4885040E+01
 1.2416857E+01  1.4978869E+01
 1.2436337E+01  1.3396427E+01
 1.2455812E+01  1.2479793E+01
 1.2475289E+01  1.2614772E+01
 1.2494767E+01  1.2643202E+01
 1.2514245E+01  1.2333282E+01
 1.2533722E+01  1.2851315E+01
 1.2553200E+01  1.3312995E+01
 1.2572678E+01  1.3643850E+01
 1.2592155E+01  1.3475071E+01
 1.2611632E+01  1.3805057E+01
 1.2631110E+01  1.3442239E+01
 1.2650587E+01  1.3038926E+01
 1.2670065E+01  1.2313474E+01
 1.2689541E+01  1.2939048E+01
 1.2709020E+01  1.3333252E+01
 1.2728498E+01  1.3499063E+01
 1.2747973E+01  1.3976960E+01
 1.2767451E+01  1.3863346E+01
 1.2786929E+01  1.4109097E+01
 1.2806406E+01  1.3763813E+01
 1.2825884E+01  1.3221007E+01
 1.2845362E+01  1.2485631E+01
 1.2864839E+01  1.2640118E+01
 1.2884315E+01  1.2372472E+01
 1.2903794E+01  1.2434555E+01
 1.2923271E+01  1.2657467E+01
 1.2942748E+01  1.3323492E+01
 1.2962226E+01  1.3254050E+01
 1.2981704E+01  1.3677802E+01
 1.3001180E+01  1.3570117E+01
 1.3020658E+01  1.3598651E+01
 1.3040136E+01  1.3084330E+01
 1.3059612E+01  1.2493587E+01
 1.3079090E+01  1.1354683E+01
 1.3098568E+01  1.0954224E+01
 1.3118045E+01  1.0890639E+01
 1.3137523E+01  1.1615398E+01
 1.3157000E+01  1.2303036E+01
 1.3176477E+01  1.2650501E+01
 1.3195955E+01  1.1527638E+01
 1.3215432E+01  1.2601743E+01
 1.3234910E+01  1.3649995E+01
 1.3254388E+01  1.3984074E+01
 1.3273865E+01  1.3255624E+01
 1.3293343E+01  1.2880306E+01
 1.3312820E+01  1.1629215E+01
 1.3332296E+01  1.1944829E+01
 1.3351773E+01  1.2060305E+01
 1.3371252E+01  1.2163578E+01
 1.3390729E+01  1.2774562E+01
 1.3410206E+01  1.2951407E+01
 1.3429684E+01  1.3249527E+01
 1.3449162E+01  1.3081555E+01
 1.3468638E+01  1.2789200E+01
 1.3488116E+01  1.2267675E+01
 1.3507594E+01  1.1871519E+01
 1.3527071E+01  1.1517470E+01
 1.3546549E+01  1.2309288E+01
 1.3566027E+01  1.3496009E+01
 1.3585504E+01  1.3548672E+01
 1.3604981E+01  1.2633240E+01
 1.3624457E+01  1.2061409E+01
 1.3643935E+01  1.2260517E+01
 1.3663413E+01  1.2516023E+01
 1.3682890E+01  1.2893821E+01
 1.3702368E+01  1.2817463E+01
 1.3721846E+01  1.3290451E+01
 1.3741323E+01  1.3221343E+01
 1.3760800E+01  1.2594514E+01
 1.3780278E+01  1.1998271E+01
 1.3799755E+01  1.3105656E+01
 1.3819232E+01  1.3164996E+01
 1.3838711E+01  1.3499758E+01
 1.3858188E+01  1.3602065E+01
 1.3877664E+01  1.4274026E+01
 1.3897141E+01  1.4068079E+01
 1.3916620E+01  1.2321339E+01
 1.3936096E+01  1.3062635E+01
 1.3955574E+01  1.1704782E+01
 1.3975052E+01  1.1572061E+01
 1.3994529E+01  1.3385033E+01
 1.4014007E+01  1.3670558E+01
 1.4033484E+01  1.3367576E+01
 1.4052961E+01  1.3028695E+01
 1.4072439E+01  1.2798115E+01
 1.4091916E+01  1.2998305E+01
 1.4111394E+01  1.3367912E+01
 1.4130872E+01  1.3443109E+01
 1.4150349E+01  1.3476414E+01
 1.4169827E+01  1.2899485E+01
 1.4189304E+01  1.2943460E+01
 1.4208780E+01  1.2825302E+01
 1.4228258E+01  1.2749318E+01
 1.4247736E+01  1.2307084E+01
 1.4267213E+01  1.2531924E+01
 1.4286690E+01  1.2604996E+01
 1.4306169E+01  1.2403407E+01
 1.4325646E+01  1.2377550E+01
 1.4345122E+01  1.3393866E+01
 1.4364600E+01  1.3235777E+01
 1.4384078E+01  1.1709313E+01
 1.4403555E+01  1.1339600E+01
 1.4423033E+01  1.2217430E+01
 1.4442511E+01  1.2937500E+01
 1.4461987E+01  1.2807584E+01
 1.4481465E+01  1.3010219E+01
 1.4500943E+01  1.3322519E+01
 1.4520419E+01  1.1781083E+01
 1.4539897E+01  1.3916599E+01
 1.4559375E+01  1.4454872E+01
 1.4578852E+01  1.3520097E+01
 1.4598330E+01  1.3180050E+01
 1.4617807E+01  1.2563284E+01
 1.4637284E+01  1.3490345E+01
 1.4656762E+01  1.3300493E+01
 1.4676240E+01  1.3531138E+01
 1.4695717E+01  1.3911389E+01
 1.4715195E+01  1.3353551E+01
 1.4734673E+01  1.2544660E+01
 1.4754148E+01  1.2022816E+01
 1.4773627E+01  1.2488043E+01
 1.4793105E+01  1.2420207E+01
 1.4812580E+01  1.2532627E+01
 1.4832058E+01  1.2196906E+01
 1.4851538E+01  1.2129995E+01
 1.4871013E+01  1.2224164E+01
 1.4890491E+01  1.2788119E+01
 1.4909968E+01  1.3000101E+01
 1.4929445E+01  1.3149554E+01
 1.4948923E+01  1.3049123E+01
 1.4968401E+01  1.2400023E+01
 1.4987878E+01  1.1854457E+01
 1.5007356E+01  1.1887323E+01
 1.5026834E+01  1.1769196E+01
 1.5046310E+01  1.1414527E+01
 1.5065788E+01  1.2183362E+01
 1.5085266E+01  1.3189673E+01
 1.5104742E+01  1.3225305E+01
 1.5124220E+01  1.2967050E+01
 1.5143699E+01  1.3251025E+01
 1.5163175E+01  1.3598631E+01
 1.5182652E+01  1.3378178E+01
 1.5202130E+01  1.2178255E+01
 1.5221606E+01  1.2809213E+01
 1.5241085E+01  1.3487431E+01
 1.5260563E+01  1.2805878E+01
 1.5280039E+01  1.3235793E+01
 1.5299517E+01  1.2803498E+01
 1.5318995E+01  1.2016602E+01
 1.5338471E+01  1.2968156E+01
 1.5357949E+01  1.4059193E+01
 1.5377427E+01  1.3082560E+01
 1.5396903E+01  1.2604913E+01
 1.5416381E+01  1.2741922E+01
 1.5435859E+01  1.3379915E+01
 1.5455336E+01  1.3337005E+01
 1.5474813E+01  1.3667459E+01
 1.5494291E+01  1.3055826E+01
 1.5513768E+01  1.2397385E+01
 1.5533246E+01  1.2378738E+01
 1.5552724E+01  1.2307594E+01
 1.5572201E+01  1.2765245E+01
 1.5591679E+01  1.2169733E+01
 1.5611156E+01  1.1739269E+01
 1.5630633E+01  1.1959666E+01
 1.5650111E+01  1.2472115E+01
 1.5669589E+01  1.2604527E+01
 1.5689064E+01  1.2312238E+01
 1.5708544E+01  1.2930997E+01
 1.5728022E+01  1.3305594E+01
 1.5747497E+01  1.3179029E+01
 1.5766974E+01  1.2822899E+01
 1.5786453E+01  1.2743211E+01
 1.5805929E+01  1.2207370E+01
 1.5825407E+01  1.1372031E+01
 1.5844885E+01  1.1400855E+01
 1.5864362E+01  1.2022862E+01
 1.5883840E+01  1.3088562E+01
 1.5903317E+01  1.2674473E+01
 1.5922794E+01  1.1609090E+01
 1.5942272E+01  1.1809045E+01
 1.5961750E+01  1.3123426E+01
 1.5981226E+01  1.3415979E+01
 1.6000704E+01  1.2906003E+01
 1.6020182E+01  1.2331170E+01
 1.6039660E+01  1.2989980E+01
 1.6059137E+01  1.3600556E+01
 1.6078615E+01  1.3088623E+01
 1.6098091E+01  1.3088595E+01
 1.6117569E+01  1.3370701E+01
 1.6137047E+01  1.3008359E+01
 1.6156523E+01  1.3755922E+01
 1.6176001E+01  1.3396263E+01
 1.6195480E+01  1.2983940E+01
 1.6214954E+01  1.2607816E+01
 1.6234432E+01  1.2247264E+01
 1.6253910E+01  1.2575308E+01
 1.6273388E+01  1.3532069E+01
 1.6292866E+01  1.3710882E+01
 1.6312344E+01  1.3517599E+01
 1.6331820E+01  1.4266338E+01
 1.6351297E+01  1.4195280E+01
 1.6370775E+01  1.4126058E+01
 1.6390253E+01  1.4020623E+01
 1.6409731E+01  1.3923025E+01
 1.6429209E+01  1.3501276E+01
 1.6448685E+01  1.3231152E+01
 1.6468163E+01  1.3335785E+01
 1.6487640E+01  1.3466259E+01
 1.6507116E+01  1.4060369E+01
 1.6526594E+01  1.4461636E+01
 1.6546072E+01  1.4623359E+01
 1.6565550E+01  1.4011996E+01
 1.6585028E+01  1.3032518E+01
 1.6604506E+01  1.2362565E+01
 1.6623981E+01  1.2463914E+01
 1.6643459E+01  1.3043866E+01
 1.6662937E+01  1.3478971E+01
 1.6682413E+01  1.3322721E+01
 1.6701891E+01  1.3349033E+01
 1.6721371E+01  1.3291998E+01
 1.6740845E+01  1.3057561E+01
 1.6760323E+01  1.3188378E+01
 1.6779800E+01  1.3606362E+01
 1.6799278E+01  1.3154427E+01
 1.6818756E+01  1.2550640E+01
 1.6838234E+01  1.2752379E+01
 1.6857710E+01  1.3773993E+01
 1.6877188E+01  1.5110116E+01
 1.6896666E+01  1.5032499E+01
 1.6916143E+01  1.4106251E+01
 1.6935621E+01  1.3796911E+01
 1.6955099E+01  1.3987418E+01
 1.6974575E+01  1.4054934E+01
 1.6994053E+01  1.4362050E+01
 1.7013531E+01  1.3522452E+01
 1.7033007E+01  1.3105607E+01
 1.7052485E+01  1.3693189E+01
 1.7071964E+01  1.2830850E+01
 1.7091438E+01  1.2942686E+01
 1.7110918E+01  1.2844690E+01
 1.7130396E+01  1.2584384E+01
 1.7149872E+01  1.2469314E+01
 1.7169350E+01  1.2406051E+01
 1.7188828E+01  1.3076938E+01
 1.7208303E+01  1.3852372E+01
 1.7227781E+01  1.4059860E+01
 1.7247259E+01  1.3969419E+01
 1.7266737E+01  1.3730712E+01
 1.7286215E+01  1.4336596E+01
 1.7305693E+01  1.4237521E+01
 1.7325169E+01  1.2804187E+01
 1.7344646E+01  1.2918859E+01
 1.7364124E+01  1.3191418E+01
 1.7383600E+01  1.3220876E+01
 1.7403078E+01  1.3380962E+01
 1.7422556E+01  1.3269391E+01
 1.7442034E+01  1.3582486E+01
 1.7461512E+01  1.3539865E+01
 1.7480989E+01  1.3204713E+01
 1.7500465E+01  1.3016513E+01
 1.7519943E+01  1.3044689E+01
 1.7539421E+01  1.2775600E+01
 1.7558897E+01  1.2290444E+01
 1.7578377E+01  1.2321975E+01
 1.7597855E+01  1.2792611E+01
 1.7617329E+01  1.3155374E+01
 1.7636806E+01  1.3137394E+01
 1.7656286E+01  1.2718998E+01
 1.7675762E+01  1.2839603E+01
 1.7695240E+01  1.3214399E+01
 1.7714718E+01  1.3637347E+01
 1.7734194E+01  1.3234295E+01
 1.7753672E+01  1.3380016E+01
 1.7773149E+01  1.4049315E+01
 1.7792627E+01  1.4256848E+01
 1.7812105E+01  1.3943277E+01
 1.7831583E+01  1.3836690E+01
 1.7851059E+01  1.2821507E+01
 1.7870537E+01  1.2431476E+01
 1.7890015E+01  1.2400092E+01
 1.7909491E+01  1.3372135E+01
 1.7928968E+01  1.4211993E+01
 1.7948448E+01  1.4134159E+01
 1.7967924E+01  1.3692149E+01
 1.7987402E+01  1.3083001E+01
 1.8006880E+01  1.3841287E+01
 1.8026356E+01  1.3932998E+01
 1.8045834E+01  1.3666943E+01
 1.8065311E+01  1.3583975E+01
 1.8084787E+01  1.3744090E+01
 1.8104265E+01  1.3650010E+01
 1.8123743E+01  1.3263743E+01
 1.8143221E+01  1.3866350E+01
 1.8162699E+01  1.3084826E+01
 1.8182177E+01  1.2582361E+01
 1.8201653E+01  1.3800399E+01
 1.8221130E+01  1.3079288E+01
 1.8240608E+01  1.2016741E+01
 1.8260084E+01  1.4397896E+01
 1.8279562E+01  1.4440392E+01
 1.8299040E+01  1.3303651E+01
 1.8318518E+01  1.3754824E+01
 1.8337996E+01  1.3637275E+01
 1.8357473E+01  1.3174528E+01
 1.8376949E+01  1.3119044E+01
 1.8396427E+01  1.3686710E+01
 1.8415905E+01  1.3683214E+01
 1.8435383E+01  1.3616490E+01
 1.8454861E+01  1.3397033E+01
 1.8474339E+01  1.3468103E+01
 1.8493813E+01  1.3560527E+01
 1.8513292E+01  1.3781364E+01
 1.8532770E+01  1.4122766E+01
 1.8552246E+01  1.4227392E+01
 1.8571724E+01  1.3510983E+01
 1.8591202E+01  1.2890965E+01
 1.8610678E+01  1.2899979E+01
 1.8630156E+01  1.3275335E+01
 1.8649633E+01  1.3702414E+01
 1.8669111E+01  1.3785822E+01
 1.8688589E+01  1.3685349E+01
 1.8708067E+01  1.3136862E+01
 1.8727543E+01  1.2642866E+01
 1.8747021E+01  1.2858599E+01
 1.8766499E+01  1.4255774E+01
 1.8785975E+01  1.5000200E+01
 1.8805452E+01  1.4577385E+01
 1.8824932E+01  1.4521027E+01
 1.8844408E+01  1.3885723E+01
 1.8863886E+01  1.3584231E+01
 1.8883364E+01  1.3674582E+01
 1.8902840E+01  1.4230177E+01
 1.8922318E+01  1.4122358E+01
 1.8941795E+01  1.4242315E+01
 1.8961271E+01  1.4063331E+01
 1.8980751E+01  1.3354396E+01
 1.9000229E+01  1.2850055E+01
 1.9019705E+01  1.2921142E+01
 1.9039183E+01  1.4139690E+01
 1.9058661E+01  1.4753283E+01
 1.9078136E+01  1.4586008E+01
 1.9097614E+01  1.3908855E+01
 1.9117092E+01  1.3866239E+01
 1.9136568E+01  1.4390179E+01
 1.9156046E+01  1.4453514E+01
 1.9175524E+01  1.3506627E+01
 1.9195002E+01  1.3109399E+01
 1.9214479E+01  1.4364600E+01
 1.9233957E+01  1.3704333E+01
 1.9253433E+01  1.3172086E+01
 1.9272911E+01  1.3139847E+01
 1.9292389E+01  1.3573337E+01
 1.9311867E+01  1.4351353E+01
 1.9331345E+01  1.5740250E+01
 1.9350822E+01  1.4710908E+01
 1.9370298E+01  1.3244679E+01
 1.9389776E+01  1.3472723E+01
 1.9409254E+01  1.4778023E+01
 1.9428730E+01  1.4609898E+01
 1.9448208E+01  1.3601866E+01
 1.9467686E+01  1.3737552E+01
 1.9487162E+01  1.4233728E+01
 1.9506639E+01  1.4351971E+01
 1.9526119E+01  1.4902298E+01
 1.9545595E+01  1.4380115E+01
 1.9565073E+01  1.4102310E+01
 1.9584551E+01  1.3514789E+01
 1.9604027E+01  1.2993602E+01
 1.9623505E+01  1.3263989E+01
 1.9642982E+01  1.3073427E+01
 1.9662458E+01  1.2692639E+01
 1.9681936E+01  1.2826479E+01
 1.9701416E+01  1.3818777E+01
 1.9720892E+01  1.4635984E+01
 1.9740370E+01  1.4378201E+01
 1.9759848E+01  1.4537401E+01
 1.9779324E+01  1.4496704E+01
 1.9798801E+01  1.4114742E+01
 1.9818279E+01  1.3440510E+01
 1.9837757E+01  1.3860918E+01
 1.9857235E+01  1.4722824E+01
 1.9876713E+01  1.5076197E+01
 1.9896189E+01  1.4446176E+01
 1.9915667E+01  1.4133160E+01
 1.9935144E+01  1.4242987E+01
 1.9954620E+01  1.4684960E+01
 1.9974098E+01  1.4190625E+01
 1.9993576E+01  1.3947232E+01
 2.0013052E+01  1.4516693E+01
 2.0032530E+01  1.4704711E+01
 2.0052008E+01  1.4512443E+01
 2.0071486E+01  1.4715640E+01
 2.0090963E+01  1.4519132E+01
 2.0110441E+01  1.4309474E+01
 2.0129917E+01  1.4466632E+01
 2.0149395E+01  1.4220149E+01
 2.0168873E+01  1.4421647E+01
 2.0188351E+01  1.4613731E+01
 2.0207829E+01  1.4260834E+01
 2.0227306E+01  1.3953613E+01
 2.0246782E+01  1.3629000E+01
 2.0266260E+01  1.4253620E+01
 2.0285738E+01  1.4639478E+01
 2.0305214E+01  1.5282045E+01
 2.0324692E+01  1.4964934E+01
 2.0344170E+01  1.3818890E+01
 2.0363646E+01  1.4055013E+01
 2.0383123E+01  1.5336926E+01
 2.0402603E+01  1.4500816E+01
 2.0422079E+01  1.4053673E+01
 2.0441557E+01  1.5015940E+01
 2.0461035E+01  1.3240319E+01
 2.0480513E+01  1.3332846E+01
 2.0499989E+01  1.3638558E+01
 2.0519468E+01  1.4081555E+01
 2.0538944E+01  1.3652481E+01
 2.0558420E+01  1.3116744E+01
 2.0577900E+01  1.2917775E+01
 2.0597374E+01  1.2954556E+01
 2.0616854E+01  1.4141479E+01
 2.0636333E+01  1.3644356E+01
 2.0655807E+01  1.3505624E+01
 2.0675285E+01  1.4379648E+01
 2.0694763E+01  1.3518853E+01
 2.0714239E+01  1.3335113E+01
 2.0733719E+01  1.3848712E+01
 2.0753195E+01  1.3778608E+01
 2.0772673E+01  1.2209304E+01
 2.0792150E+01  1.3276829E+01
 2.0811628E+01  1.5200311E+01
 2.0831104E+01  1.6009157E+01
 2.0850584E+01  1.3834416E+01
 2.0870060E+01  1.3011192E+01
 2.0889536E+01  1.3864827E+01
 2.0909016E+01  1.3768958E+01
 2.0928492E+01  1.4118716E+01
 2.0947969E+01  1.5267827E+01
 2.0967447E+01  1.4955309E+01
 2.0986925E+01  1.4184843E+01
 2.1006401E+01  1.5359507E+01
 2.1025881E+01  1.5429326E+01
 2.1045357E+01  1.4704259E+01
 2.1064835E+01  1.4680390E+01
 2.1084312E+01  1.3915406E+01
 2.1103790E+01  1.2585538E+01
 2.1123266E+01  1.2590652E+01
 2.1142742E+01  1.4077415E+01
 2.1162222E+01  1.4243129E+01
 2.1181698E+01  1.3999246E+01
 2.1201176E+01  1.3713172E+01
 2.1220654E+01  1.4317174E+01
 2.1240131E+01  1.3981536E+01
 2.1259607E+01  1.3449431E+01
 2.1279087E+01  1.3894818E+01
 2.1298563E+01  1.4496190E+01
 2.1318041E+01  1.4376576E+01
 2.1337519E+01  1.3627603E+01
 2.1356997E+01  1.3538079E+01
 2.1376472E+01  1.4417686E+01
 2.1395952E+01  1.3696445E+01
 2.1415428E+01  1.3844403E+01
 2.1434904E+01  1.4781918E+01
 2.1454384E+01  1.4555951E+01
 2.1473862E+01  1.4436171E+01
 2.1493338E+01  1.4605556E+01
 2.1512817E+01  1.4819343E+01
 2.1532291E+01  1.4871008E+01
 2.1551769E+01  1.4968163E+01
 2.1571249E+01  1.4567883E+01
 2.1590723E+01  1.5010338E+01
 2.1610203E+01  1.5759650E+01
 2.1629681E+01  1.5200972E+01
 2.1649157E+01  1.5974623E+01
 2.1668634E+01  1.6446960E+01
 2.1688112E+01  1.6121176E+01
 2.1707588E+01  1.6654530E+01
 2.1727068E+01  1.7581886E+01
 2.1746544E+01  1.8905609E+01
 2.1766020E+01  2.0474068E+01
 2.1785500E+01  2.5148916E+01
 2.1804976E+01  4.3446568E+01
 2.1824453E+01  1.0329044E+02
 2.1843931E+01  1.7668767E+02
 2.1863409E+01  1.7850856E+02
 2.1882885E+01  1.2779073E+02
 2.1902365E+01  7.3955650E+01
 2.1921841E+01  4.2873238E+01
 2.1941319E+01  2.9674553E+01
 2.1960796E+01  2.4845591E+01
 2.1980274E+01  2.2208492E+01
 2.1999750E+01  1.9632626E+01
 2.2019230E+01  1.8184530E+01
 2.2038706E+01  1.7282990E+01
 2.2058182E+01  1.6355061E+01
 2.2077660E+01  1.5334270E+01
 2.2097137E+01  1.5248467E+01
 2.2116615E+01  1.5179852E+01
 2.2136091E+01  1.4670683E+01
 2.2155571E+01  1.4585279E+01
 2.2175047E+01  1.5218496E+01
 2.2194525E+01  1.4910232E+01
 2.2214003E+01  1.4486346E+01
 2.2233480E+01  1.4222439E+01
 2.2252956E+01  1.3851547E+01
 2.2272436E+01  1.3182220E+01
 2.2291912E+01  1.2760755E+01
 2.2311388E+01  1.3807790E+01
 2.2330868E+01  1.4482425E+01
 2.2350346E+01  1.4669654E+01
 2.2369822E+01  1.4665720E+01
 2.2389301E+01  1.4059247E+01
 2.2408777E+01  1.4084009E+01
 2.2428253E+01  1.4086473E+01
 2.2447733E+01  1.4592855E+01
 2.2467207E+01  1.4267877E+01
 2.2486687E+01  1.3708623E+01
 2.2506165E+01  1.3848313E+01
 2.2525640E+01  1.4647816E+01
 2.2545118E+01  1.5056512E+01
 2.2564596E+01  1.5293225E+01
 2.2584072E+01  1.5362002E+01
 2.2603552E+01  1.5521231E+01
 2.2623028E+01  1.5071435E+01
 2.2642504E+01  1.4013227E+01
 2.2661983E+01  1.3584199E+01
 2.2681459E+01  1.3027381E+01
 2.2700937E+01  1.3131691E+01
 2.2720415E+01  1.3763045E+01
 2.2739893E+01  1.4540124E+01
 2.2759369E+01  1.4476824E+01
 2.2778849E+01  1.3978454E+01
 2.2798325E+01  1.4713414E+01
 2.2817802E+01  1.5640671E+01
 2.2837280E+01  1.5758426E+01
 2.2856758E+01  1.5055938E+01
 2.2876234E+01  1.4949344E+01
 2.2895714E+01  1.5712358E+01
 2.2915190E+01  1.5679655E+01
 2.2934666E+01  1.5181941E+01
 2.2954145E+01  1.4924738E+01
 2.2973621E+01  1.4550498E+01
 2.2993099E+01  1.5324717E+01
 2.3012575E+01  1.5922993E+01
 2.3032055E+01  1.5392398E+01
 2.3051531E+01  1.4313079E+01
 2.3071009E+01  1.4064595E+01
 2.3090487E+01  1.4700590E+01
 2.3109964E+01  1.5167923E+01
 2.3129440E+01  1.4807338E+01
 2.3148920E+01  1.4761003E+01
 2.3168396E+01  1.5051527E+01
 2.3187872E+01  1.5265326E+01
 2.3207352E+01  1.5177738E+01
 2.3226830E+01  1.5318969E+01
 2.3246305E+01  1.4624456E+01
 2.3265785E+01  1.3919162E+01
 2.3285261E+01  1.4059586E+01
 2.3304737E+01  1.4074585E+01
 2.3324217E+01  1.3949688E+01
 2.3343693E+01  1.4056067E+01
 2.3363171E+01  1.4155098E+01
 2.3382648E+01  1.3779028E+01
 2.3402124E+01  1.3170747E+01
 2.3421602E+01  1.3421700E+01
 2.3441082E+01  1.4071650E+01
 2.3460556E+01  1.4202777E+01
 2.3480036E+01  1.3834379E+01
 2.3499514E+01  1.4054090E+01
 2.3518988E+01  1.4460838E+01
 2.3538467E+01  1.4566187E+01
 2.3557943E+01  1.4420994E+01
 2.3577421E+01  1.4899332E+01
 2.3596899E+01  1.5829255E+01
 2.3616377E+01  1.5613504E+01
 2.3635853E+01  1.3967603E+01
 2.3655333E+01  1.3726018E+01
 2.3674809E+01  1.4294627E+01
 2.3694286E+01  1.5009942E+01
 2.3713764E+01  1.5233944E+01
 2.3733242E+01  1.4698226E+01
 2.3752718E+01  1.4594817E+01
 2.3772198E+01  1.4941051E+01
 2.3791674E+01  1.5069069E+01
 2.3811150E+01  1.4792068E+01
 2.3830629E+01  1.5114220E+01
 2.3850105E+01  1.4998011E+01
 2.3869583E+01  1.4784971E+01
 2.3889063E+01  1.4574896E+01
 2.3908539E+01  1.4814984E+01
 2.3928015E+01  1.4407084E+01
 2.3947493E+01  1.4633065E+01
 2.3966970E+01  1.5087280E+01
 2.3986448E+01  1.5416595E+01
 2.4005924E+01  1.5204477E+01
 2.4025404E+01  1.4707763E+01
 2.4044880E+01  1.4832987E+01
 2.4064356E+01  1.4947009E+01
 2.4083836E+01  1.4502627E+01
 2.4103313E+01  1.5205912E+01
 2.4122789E+01  1.5347624E+01
 2.4142269E+01  1.5425136E+01
 2.4161745E+01  1.4903724E+01
 2.4181221E+01  1.5123171E+01
 2.4200701E+01  1.5094490E+01
 2.4220177E+01  1.4850169E+01
 2.4239655E+01  1.5239598E+01
 2.4259132E+01  1.5816836E+01
 2.4278610E+01  1.5785448E+01
 2.4298086E+01  1.4039153E+01
 2.4317566E+01  1.4384377E+01
 2.4337040E+01  1.5029979E+01
 2.4356520E+01  1.5383056E+01
 2.4375998E+01  1.4726453E+01
 2.4395472E+01  1.5612367E+01
 2.4414951E+01  1.5340175E+01
 2.4434427E+01  1.4550532E+01
 2.4453905E+01  1.3880583E+01
 2.4473383E+01  1.4512633E+01
 2.4492861E+01  1.5844543E+01
 2.4512337E+01  1.5506192E+01
 2.4531816E+01  1.5546154E+01
 2.4551292E+01  1.4858015E+01
 2.4570770E+01  1.5088627E+01
 2.4590248E+01  1.4835793E+01
 2.4609726E+01  1.5172968E+01
 2.4629202E+01  1.6306818E+01
 2.4648682E+01  1.5278316E+01
 2.4668158E+01  1.4032216E+01
 2.4687634E+01  1.5285114E+01
 2.4707113E+01  1.4942657E+01
 2.4726589E+01  1.6485407E+01
 2.4746067E+01  1.5865372E+01
 2.4765547E+01  1.5065200E+01
 2.4785023E+01  1.5051478E+01
 2.4804499E+01  1.6087824E+01
 2.4823978E+01  1.6072323E+01
 2.4843454E+01  1.5467484E+01
 2.4862932E+01  1.5694252E+01
 2.4882408E+01  1.5822131E+01
 2.4901888E+01  1.4223231E+01
 2.4921364E+01  1.4495459E+01
 2.4940840E+01  1.5388807E+01
 2.4960320E+01  1.6339128E+01
 2.4979797E+01  1.5627180E+01
 2.4999273E+01  1.5545951E+01
 2.5018753E+01  1.5613415E+01
 2.5038229E+01  1.5897765E+01
 2.5057705E+01  1.5124708E+01
 2.5077185E+01  1.4983591E+01
 2.5096661E+01  1.5036159E+01
 2.5116138E+01  1.4592000E+01
 2.5135616E+01  1.4685098E+01
 2.5155094E+01  1.4436279E+01
 2.5174570E+01  1.4006778E+01
 2.5194050E+01  1.4750967E+01
 2.5213526E+01  1.5563290E+01
 2.5233004E+01  1.5765117E+01
 2.5252481E+01  1.4922647E+01
 2.5271955E+01  1.4403516E+01
 2.5291435E+01  1.5558269E+01
 2.5310915E+01  1.6075535E+01
 2.5330389E+01  1.5149462E+01
 2.5349867E+01  1.5042791E+01
 2.5369347E+01  1.6386833E+01
 2.5388821E+01  1.6804216E+01
 2.5408300E+01  1.6591776E+01
 2.5427776E+01  1.5516749E+01
 2.5447254E+01  1.5484977E+01
 2.5466732E+01  1.6003757E+01
 2.5486210E+01  1.5697644E+01
 2.5505686E+01  1.5512123E+01
 2.5525166E+01  1.6045788E+01
 2.5544641E+01  1.6128429E+01
 2.5564117E+01  1.5636755E+01
 2.5583597E+01  1.5803636E+01
 2.5603073E+01  1.5525175E+01
 2.5622551E+01  1.5878116E+01
 2.5642031E+01  1.6617962E+01
 2.5661507E+01  1.7248976E+01
 2.5680983E+01  1.6851946E+01
 2.5700462E+01  1.6253918E+01
 2.5719938E+01  1.5942568E+01
 2.5739416E+01  1.5829748E+01
 2.5758894E+01  1.5228585E+01
 2.5778372E+01  1.5830604E+01
 2.5797848E+01  1.5399680E+01
 2.5817324E+01  1.5394758E+01
 2.5836803E+01  1.5708982E+01
 2.5856281E+01  1.5654891E+01
 2.5875757E+01  1.5615799E+01
 2.5895237E+01  1.5824972E+01
 2.5914713E+01  1.6380270E+01
 2.5934189E+01  1.6151199E+01
 2.5953669E+01  1.5810399E+01
 2.5973145E+01  1.4676530E+01
 2.5992622E+01  1.5787906E+01
 2.6012100E+01  1.6510578E+01
 2.6031578E+01  1.6360607E+01
 2.6051054E+01  1.5863927E+01
 2.6070534E+01  1.5547836E+01
 2.6090010E+01  1.6018591E+01
 2.6109488E+01  1.6201515E+01
 2.6128965E+01  1.5540244E+01
 2.6148443E+01  1.5176206E+01
 2.6167919E+01  1.5252081E+01
 2.6187399E+01  1.4398181E+01
 2.6206873E+01  1.3824043E+01
 2.6226351E+01  1.4013881E+01
 2.6245831E+01  1.5049730E+01
 2.6265305E+01  1.5542775E+01
 2.6284784E+01  1.5459513E+01
 2.6304260E+01  1.5204905E+01
 2.6323738E+01  1.6183590E+01
 2.6343216E+01  1.6453938E+01
 2.6362694E+01  1.5694548E+01
 2.6382170E+01  1.5809516E+01
 2.6401649E+01  1.6260035E+01
 2.6421125E+01  1.6673206E+01
 2.6440601E+01  1.6445736E+01
 2.6460081E+01  1.6127804E+01
 2.6479557E+01  1.5660322E+01
 2.6499035E+01  1.6016729E+01
 2.6518515E+01  1.5723549E+01
 2.6537991E+01  1.4828794E+01
 2.6557467E+01  1.5012209E+01
 2.6576946E+01  1.4889155E+01
 2.6596422E+01  1.5220656E+01
 2.6615900E+01  1.6417416E+01
 2.6635378E+01  1.5734964E+01
 2.6654856E+01  1.6665899E+01
 2.6674332E+01  1.7231018E+01
 2.6693811E+01  1.6918518E+01
 2.6713287E+01  1.5371415E+01
 2.6732765E+01  1.5558167E+01
 2.6752241E+01  1.6228064E+01
 2.6771721E+01  1.6052309E+01
 2.6791197E+01  1.6145845E+01
 2.6810673E+01  1.7021925E+01
 2.6830153E+01  1.6296740E+01
 2.6849628E+01  1.5874527E+01
 2.6869106E+01  1.4926433E+01
 2.6888584E+01  1.5043280E+01
 2.6908062E+01  1.5419496E+01
 2.6927538E+01  1.6128420E+01
 2.6947018E+01  1.6435780E+01
 2.6966494E+01  1.7116606E+01
 2.6985971E+01  1.7443361E+01
 2.7005449E+01  1.7285805E+01
 2.7024927E+01  1.6304735E+01
 2.7044403E+01  1.6266720E+01
 2.7063883E+01  1.6021973E+01
 2.7083359E+01  1.6258381E+01
 2.7102835E+01  1.6690668E+01
 2.7122314E+01  1.5981428E+01
 2.7141788E+01  1.5860623E+01
 2.7161268E+01  1.5508404E+01
 2.7180746E+01  1.6472826E+01
 2.7200222E+01  1.6153572E+01
 2.7219700E+01  1.5941244E+01
 2.7239180E+01  1.6097103E+01
 2.7258654E+01  1.5704077E+01
 2.7278133E+01  1.6636381E+01
 2.7297609E+01  1.5759905E+01
 2.7317085E+01  1.5893949E+01
 2.7336565E+01  1.6432774E+01
 2.7356041E+01  1.6295467E+01
 2.7375519E+01  1.7009159E+01
 2.7394999E+01  1.7281921E+01
 2.7414474E+01  1.7252434E+01
 2.7433950E+01  1.6964993E+01
 2.7453430E+01  1.6399790E+01
 2.7472906E+01  1.5853538E+01
 2.7492384E+01  1.5562476E+01
 2.7511862E+01  1.4677658E+01
 2.7531340E+01  1.4309178E+01
 2.7550816E+01  1.4973552E+01
 2.7570295E+01  1.6575693E+01
 2.7589771E+01  1.6778629E+01
 2.7609249E+01  1.6006119E+01
 2.7628727E+01  1.6495281E+01
 2.7648205E+01  1.6999706E+01
 2.7667681E+01  1.5706103E+01
 2.7687157E+01  1.5433833E+01
 2.7706636E+01  1.6560534E+01
 2.7726112E+01  1.6374353E+01
 2.7745590E+01  1.6135822E+01
 2.7765068E+01  1.7083221E+01
 2.7784546E+01  1.7124079E+01
 2.7804022E+01  1.7029335E+01
 2.7823502E+01  1.6154432E+01
 2.7842978E+01  1.6246866E+01
 2.7862455E+01  1.7069933E+01
 2.7881933E+01  1.6578993E+01
 2.7901411E+01  1.5463818E+01
 2.7920887E+01  1.5647485E+01
 2.7940367E+01  1.6252724E+01
 2.7959843E+01  1.6210878E+01
 2.7979319E+01  1.6143389E+01
 2.7998798E+01  1.6109396E+01
 2.8018274E+01  1.5783151E+01
 2.8037752E+01  1.6440445E+01
 2.8057230E+01  1.6999342E+01
 2.8076706E+01  1.7189295E+01
 2.8096184E+01  1.6368238E+01
 2.8115664E+01  1.6645779E+01
 2.8135138E+01  1.6442947E+01
 2.8154617E+01  1.5472664E+01
 2.8174093E+01  1.5326552E+01
 2.8193569E+01  1.5739624E+01
 2.8213049E+01  1.6117689E+01
 2.8232525E+01  1.7091539E+01
 2.8252003E+01  1.6648174E+01
 2.8271482E+01  1.6263062E+01
 2.8290958E+01  1.6821714E+01
 2.8310434E+01  1.7255436E+01
 2.8329914E+01  1.7084595E+01
 2.8349390E+01  1.6822559E+01
 2.8368868E+01  1.7018816E+01
 2.8388346E+01  1.7745493E+01
 2.8407824E+01  1.7482052E+01
 2.8427299E+01  1.7496361E+01
 2.8446779E+01  1.6536703E+01
 2.8466255E+01  1.6083712E+01
 2.8485733E+01  1.6337917E+01
 2.8505211E+01  1.6659630E+01
 2.8524689E+01  1.6253386E+01
 2.8544165E+01  1.5942086E+01
 2.8563644E+01  1.5985367E+01
 2.8583120E+01  1.5059868E+01
 2.8602596E+01  1.5636675E+01
 2.8622074E+01  1.6350876E+01
 2.8641552E+01  1.6751648E+01
 2.8661030E+01  1.6587761E+01
 2.8680508E+01  1.5834128E+01
 2.8699986E+01  1.5732090E+01
 2.8719461E+01  1.6052576E+01
 2.8738941E+01  1.6142965E+01
 2.8758417E+01  1.6167765E+01
 2.8777895E+01  1.6473070E+01
 2.8797373E+01  1.6773846E+01
 2.8816851E+01  1.6897942E+01
 2.8836327E+01  1.6881958E+01
 2.8855806E+01  1.7168095E+01
